'Id: "" Comment: "" Operator: "Operator" Anode: "Cu" Scantype: "Locked Coupled" TimePerStep: "65" 
2 72.0153846153846
2.01536540593952 71.1538461538462
2.03073081187904 69.9692307692308
2.04609621781856 70.0153846153846
2.06146162375808 68.3076923076923
2.0768270296976 66.1230769230769
2.09219243563712 66.2307692307692
2.10755784157664 67.0615384615385
2.12292324751616 63.6461538461538
2.13828865345567 62.5538461538462
2.15365405939519 62.3846153846154
2.16901946533471 61.7538461538462
2.18438487127423 59.4307692307692
2.19975027721375 59.4615384615385
2.21511568315327 59.0307692307692
2.23048108909279 58.1538461538462
2.24584649503231 56.2153846153846
2.26121190097183 54.8615384615385
2.27657730691135 55.8153846153846
2.29194271285087 54.9846153846154
2.30730811879039 53.5846153846154
2.32267352472991 52.4307692307692
2.33803893066943 52.2923076923077
2.35340433660895 52.2153846153846
2.36876974254847 51.0153846153846
2.38413514848799 50.8307692307692
2.3995005544275 51.6
2.41486596036702 50.6
2.43023136630654 50.3230769230769
2.44559677224606 49.4769230769231
2.46096217818558 49.4307692307692
2.4763275841251 49.3230769230769
2.49169299006462 48.6923076923077
2.50705839600414 50
2.52242380194366 49.7076923076923
2.53778920788318 48.6461538461538
2.5531546138227 48.0307692307692
2.56852001976222 48.0923076923077
2.58388542570174 48.5384615384615
2.59925083164126 48.1538461538462
2.61461623758078 46.9846153846154
2.6299816435203 46.9846153846154
2.64534704945982 47.6153846153846
2.66071245539933 47.8615384615385
2.67607786133885 46.9692307692308
2.69144326727837 46.7846153846154
2.70680867321789 47
2.72217407915741 46.2923076923077
2.73753948509693 46.2769230769231
2.75290489103645 46.9846153846154
2.76827029697597 46.6461538461538
2.78363570291549 46.4153846153846
2.79900110885501 46.3076923076923
2.81436651479453 45.5538461538462
2.82973192073405 46.2461538461538
2.84509732667357 45.3538461538462
2.86046273261309 45.6769230769231
2.87582813855261 46
2.89119354449213 45.2923076923077
2.90655895043164 45.6153846153846
2.92192435637116 45.1846153846154
2.93728976231068 45.1076923076923
2.9526551682502 44.9846153846154
2.96802057418972 45.1384615384615
2.98338598012924 44.3230769230769
2.99875138606876 44.6153846153846
3.01411679200828 44.9846153846154
3.0294821979478 44.6769230769231
3.04484760388732 44.4769230769231
3.06021300982684 44.5692307692308
3.07557841576636 44.1538461538462
3.09094382170588 43.8461538461538
3.1063092276454 44.4769230769231
3.12167463358492 44.3692307692308
3.13704003952444 44.0307692307692
3.15240544546396 44.3384615384615
3.16777085140347 44.3692307692308
3.18313625734299 44.1846153846154
3.19850166328251 44.3076923076923
3.21386706922203 43.6923076923077
3.22923247516155 43.6923076923077
3.24459788110107 44.1076923076923
3.25996328704059 43.6923076923077
3.27532869298011 43.4461538461538
3.29069409891963 43.7538461538462
3.30605950485915 43.7230769230769
3.32142491079867 43.7538461538462
3.33679031673819 43.5538461538462
3.35215572267771 43.6307692307692
3.36752112861723 43.6461538461538
3.38288653455675 43.4153846153846
3.39825194049627 43.0615384615385
3.41361734643579 43.5076923076923
3.4289827523753 43.5538461538462
3.44434815831482 43.1846153846154
3.45971356425434 43.2153846153846
3.47507897019386 43.0307692307692
3.49044437613338 43.0615384615385
3.5058097820729 43.4307692307692
3.52117518801242 43.1846153846154
3.53654059395194 43.1846153846154
3.55190599989146 42.9692307692308
3.56727140583098 43.2307692307692
3.5826368117705 43.0769230769231
3.59800221771002 42.8461538461538
3.61336762364954 42.5692307692308
3.62873302958906 42.6153846153846
3.64409843552858 43.0923076923077
3.6594638414681 42.9230769230769
3.67482924740762 42.6769230769231
3.69019465334713 43
3.70556005928665 43.5230769230769
3.72092546522617 43.0615384615385
3.73629087116569 42.3384615384615
3.75165627710521 42.5384615384615
3.76702168304473 42.8153846153846
3.78238708898425 42.7384615384615
3.79775249492377 42.7230769230769
3.81311790086329 42.5538461538462
3.82848330680281 43.0923076923077
3.84384871274233 42.7230769230769
3.85921411868185 42.6461538461538
3.87457952462137 43.0769230769231
3.88994493056089 42.6
3.90531033650041 42.5692307692308
3.92067574243993 42.5538461538462
3.93604114837945 43.0615384615385
3.95140655431896 42.6153846153846
3.96677196025848 42.8307692307692
3.982137366198 42.6923076923077
3.99750277213752 42.9846153846154
4.01286817807704 42.3692307692308
4.02823358401656 42.5076923076923
4.04359898995608 42.5538461538462
4.0589643958956 42.2615384615385
4.07432980183512 42.6
4.08969520777464 42.4307692307692
4.10506061371416 42.1846153846154
4.12042601965368 42.0923076923077
4.1357914255932 42.6307692307692
4.15115683153272 42.5230769230769
4.16652223747224 42.4
4.18188764341176 42.2769230769231
4.19725304935128 42.7384615384615
4.21261845529079 42.3538461538462
4.22798386123031 42.7692307692308
4.24334926716983 42.3538461538462
4.25871467310935 42.4461538461538
4.27408007904887 42.7384615384615
4.28944548498839 42.3692307692308
4.30481089092791 42.0307692307692
4.32017629686743 42.3230769230769
4.33554170280695 42.3846153846154
4.35090710874647 42.6307692307692
4.36627251468599 42.2307692307692
4.38163792062551 42.2
4.39700332656503 42.4923076923077
4.41236873250455 42.7692307692308
4.42773413844407 42.4615384615385
4.44309954438359 42.0769230769231
4.4584649503231 42.3692307692308
4.47383035626262 42.0615384615385
4.48919576220214 41.9846153846154
4.50456116814166 42.1076923076923
4.51992657408118 42.6
4.5352919800207 42.4615384615385
4.55065738596022 42.3384615384615
4.56602279189974 42.2923076923077
4.58138819783926 42.0153846153846
4.59675360377878 42.3076923076923
4.6121190097183 42.4615384615385
4.62748441565782 42.3692307692308
4.64284982159734 42.5230769230769
4.65821522753686 42.3076923076923
4.67358063347638 41.8923076923077
4.6889460394159 41.9846153846154
4.70431144535542 42.3538461538462
4.71967685129493 42.3538461538462
4.73504225723445 42
4.75040766317397 42.1692307692308
4.76577306911349 42.0307692307692
4.78113847505301 41.9230769230769
4.79650388099253 42.2461538461538
4.81186928693205 41.9230769230769
4.82723469287157 42.1076923076923
4.84260009881109 42.2153846153846
4.85796550475061 42.1846153846154
4.87333091069013 42.3538461538462
4.88869631662965 42.2923076923077
4.90406172256917 42.1384615384615
4.91942712850869 42.2153846153846
4.93479253444821 42.1846153846154
4.95015794038773 42.2307692307692
4.96552334632725 42.0307692307692
4.98088875226676 42
4.99625415820628 42.2923076923077
5.0116195641458 42.2769230769231
5.02698497008532 42.4461538461538
5.04235037602484 42.6
5.05771578196436 42.3384615384615
5.07308118790388 42.0307692307692
5.0884465938434 42.3846153846154
5.10381199978292 42.1076923076923
5.11917740572244 41.7538461538462
5.13454281166196 42.1538461538462
5.14990821760148 42.1076923076923
5.165273623541 42.1230769230769
5.18063902948052 42.0923076923077
5.19600443542004 42.3538461538462
5.21136984135956 42.1846153846154
5.22673524729908 42.0615384615385
5.24210065323859 42.1076923076923
5.25746605917811 41.9692307692308
5.27283146511763 42.1538461538462
5.28819687105715 42.0923076923077
5.30356227699667 42.1538461538462
5.31892768293619 42.2769230769231
5.33429308887571 42.6
5.34965849481523 42.3076923076923
5.36502390075475 42.3846153846154
5.38038930669427 42.0153846153846
5.39575471263379 41.9692307692308
5.41112011857331 41.9076923076923
5.42648552451283 42.2461538461538
5.44185093045235 42.5538461538462
5.45721633639187 41.9230769230769
5.47258174233139 42.0769230769231
5.48794714827091 42.2153846153846
5.50331255421042 42.3538461538462
5.51867796014994 42.3692307692308
5.53404336608946 42.1846153846154
5.54940877202898 42.5538461538462
5.5647741779685 41.9538461538462
5.58013958390802 42.2923076923077
5.59550498984754 42.0153846153846
5.61087039578706 42.2461538461538
5.62623580172658 42.6
5.6416012076661 42.3076923076923
5.65696661360562 42.0923076923077
5.67233201954514 41.9846153846154
5.68769742548466 42.6923076923077
5.70306283142418 42.0615384615385
5.7184282373637 41.8
5.73379364330322 42.1538461538462
5.74915904924273 42
5.76452445518225 42.2615384615385
5.77988986112177 42.1384615384615
5.79525526706129 42.1230769230769
5.81062067300081 42.2769230769231
5.82598607894033 42.4153846153846
5.84135148487985 42.2461538461538
5.85671689081937 42.4
5.87208229675889 42.2307692307692
5.88744770269841 42.4
5.90281310863793 42.1384615384615
5.91817851457745 42.2461538461538
5.93354392051697 41.9846153846154
5.94890932645649 42.1846153846154
5.96427473239601 42.3384615384615
5.97964013833553 41.8307692307692
5.99500554427505 41.8615384615385
6.01037095021456 41.9384615384615
6.02573635615408 42.3846153846154
6.0411017620936 42.1846153846154
6.05646716803312 42.0923076923077
6.07183257397264 42.2615384615385
6.08719797991216 41.9076923076923
6.10256338585168 42.4461538461538
6.1179287917912 42.1846153846154
6.13329419773072 42.4153846153846
6.14865960367024 41.8923076923077
6.16402500960976 42.3692307692308
6.17939041554928 42.0615384615385
6.1947558214888 42.4615384615385
6.21012122742832 42.1692307692308
6.22548663336784 41.8923076923077
6.24085203930736 42.3692307692308
6.25621744524688 42.1692307692308
6.27158285118639 42.1846153846154
6.28694825712591 41.9538461538462
6.30231366306543 42.1692307692308
6.31767906900495 42.2
6.33304447494447 41.9384615384615
6.34840988088399 42.2615384615385
6.36377528682351 42
6.37914069276303 42.2
6.39450609870255 42.2461538461538
6.40987150464207 42
6.42523691058159 41.9846153846154
6.44060231652111 42
6.45596772246063 42.1692307692308
6.47133312840015 42.2153846153846
6.48669853433967 42.3230769230769
6.50206394027919 42.2153846153846
6.51742934621871 42.4769230769231
6.53279475215822 42.3692307692308
6.54816015809774 42.4615384615385
6.56352556403726 42.0923076923077
6.57889096997678 42.0923076923077
6.5942563759163 42.0923076923077
6.60962178185582 42.5692307692308
6.62498718779534 42.4615384615385
6.64035259373486 42.1692307692308
6.65571799967438 42.7076923076923
6.6710834056139 42.2923076923077
6.68644881155342 42.0307692307692
6.70181421749294 42.4461538461538
6.71717962343246 42.7230769230769
6.73254502937198 43
6.7479104353115 43.3076923076923
6.76327584125102 43.8615384615385
6.77864124719054 44.1538461538462
6.79400665313005 44.2923076923077
6.80937205906957 45.0615384615385
6.82473746500909 45.6461538461538
6.84010287094861 46.8769230769231
6.85546827688813 45.5538461538462
6.87083368282765 44.3538461538462
6.88619908876717 42.7384615384615
6.90156449470669 42.5692307692308
6.91692990064621 42.3846153846154
6.93229530658573 42.2
6.94766071252525 42.3230769230769
6.96302611846477 41.9692307692308
6.97839152440429 42.5692307692308
6.99375693034381 42.6153846153846
7.00912233628333 42.1384615384615
7.02448774222285 42.0153846153846
7.03985314816237 42.2
7.05521855410188 42.3538461538462
7.0705839600414 42.1846153846154
7.08594936598092 42.3384615384615
7.10131477192044 42.4461538461538
7.11668017785996 41.9384615384615
7.13204558379948 42.2461538461538
7.147410989739 42.4923076923077
7.16277639567852 42.2615384615385
7.17814180161804 42.1384615384615
7.19350720755756 42.1384615384615
7.20887261349708 42.1230769230769
7.2242380194366 42.4307692307692
7.23960342537612 42.4153846153846
7.25496883131564 42.2153846153846
7.27033423725516 42.0461538461539
7.28569964319468 42.2307692307692
7.30106504913419 42.4
7.31643045507371 42.1538461538462
7.33179586101323 41.8
7.34716126695275 42.3076923076923
7.36252667289227 42.2461538461538
7.37789207883179 42.4307692307692
7.39325748477131 42.4
7.40862289071083 41.9538461538462
7.42398829665035 42.2307692307692
7.43935370258987 42.0153846153846
7.45471910852939 42.3692307692308
7.47008451446891 41.9076923076923
7.48544992040843 42.1076923076923
7.50081532634795 42.1692307692308
7.51618073228747 42.3538461538462
7.53154613822699 42.4615384615385
7.54691154416651 42.4153846153846
7.56227695010602 42.4615384615385
7.57764235604554 42.0615384615385
7.59300776198506 42.1076923076923
7.60837316792458 42.4461538461538
7.6237385738641 42.7384615384615
7.63910397980362 42.2461538461538
7.65446938574314 42.1230769230769
7.66983479168266 42.1384615384615
7.68520019762218 41.9384615384615
7.7005656035617 42
7.71593100950122 42.2615384615385
7.73129641544074 42.3384615384615
7.74666182138026 41.9846153846154
7.76202722731978 42.4923076923077
7.7773926332593 42.4
7.79275803919882 42.3538461538462
7.80812344513834 42.2615384615385
7.82348885107785 42.1846153846154
7.83885425701737 42.4923076923077
7.85421966295689 42.2923076923077
7.86958506889641 42.3230769230769
7.88495047483593 42.0615384615385
7.90031588077545 41.6461538461538
7.91568128671497 42.3538461538462
7.93104669265449 42.1230769230769
7.94641209859401 42.3846153846154
7.96177750453353 42.1384615384615
7.97714291047305 42.3538461538462
7.99250831641257 42.5538461538462
8.00787372235209 42.1384615384615
8.02323912829161 42.3230769230769
8.03860453423113 41.9692307692308
8.05396994017065 42.0923076923077
8.06933534611017 42.2153846153846
8.08470075204968 42.4461538461538
8.1000661579892 42.2307692307692
8.11543156392872 42.6615384615385
8.13079696986824 42.0461538461539
8.14616237580776 42.3230769230769
8.16152778174728 42
8.1768931876868 42.1846153846154
8.19225859362632 42.1846153846154
8.20762399956584 42.1384615384615
8.22298940550536 42.3692307692308
8.23835481144488 42.0153846153846
8.2537202173844 41.8461538461538
8.26908562332392 42.0615384615385
8.28445102926344 42.3692307692308
8.29981643520296 42.2153846153846
8.31518184114248 42.0461538461539
8.330547247082 42.1384615384615
8.34591265302151 42.3846153846154
8.36127805896103 42
8.37664346490055 42.5230769230769
8.39200887084007 42.4153846153846
8.40737427677959 42.4769230769231
8.42273968271911 42.3538461538462
8.43810508865863 42.3230769230769
8.45347049459815 42.4923076923077
8.46883590053767 42.4615384615385
8.48420130647719 42.3230769230769
8.49956671241671 42.4923076923077
8.51493211835623 42.5076923076923
8.53029752429575 42.8461538461538
8.54566293023527 42.9230769230769
8.56102833617479 42.5230769230769
8.57639374211431 42.9230769230769
8.59175914805382 42.8615384615385
8.60712455399334 43.4461538461538
8.62248995993286 43.1384615384615
8.63785536587238 44
8.6532207718119 44.1538461538462
8.66858617775142 44.5230769230769
8.68395158369094 45.7384615384615
8.69931698963046 46.6769230769231
8.71468239556998 47.3538461538462
8.7300478015095 49.0461538461539
8.74541320744902 50.4923076923077
8.76077861338854 50.2615384615385
8.77614401932806 47.8307692307692
8.79150942526758 44.8615384615385
8.8068748312071 43.3692307692308
8.82224023714662 42.9692307692308
8.83760564308614 42.9384615384615
8.85297104902565 42.1846153846154
8.86833645496517 42.6153846153846
8.88370186090469 42.3692307692308
8.89906726684421 42.4461538461538
8.91443267278373 41.9076923076923
8.92979807872325 42.3384615384615
8.94516348466277 42.4769230769231
8.96052889060229 42.3230769230769
8.97589429654181 42.2461538461538
8.99125970248133 42.2307692307692
9.00662510842085 42.0769230769231
9.02199051436037 42.6153846153846
9.03735592029989 42.4
9.05272132623941 42.2
9.06808673217893 42.1846153846154
9.08345213811845 42
9.09881754405797 42.1230769230769
9.11418294999748 42.1076923076923
9.129548355937 42.2923076923077
9.14491376187652 42.2
9.16027916781604 42.5230769230769
9.17564457375556 42.1538461538462
9.19100997969508 42.5846153846154
9.2063753856346 42.0923076923077
9.22174079157412 42.0923076923077
9.23710619751364 42.3076923076923
9.25247160345316 42.0923076923077
9.26783700939268 42.2923076923077
9.2832024153322 42.2769230769231
9.29856782127172 42.4307692307692
9.31393322721124 42.1846153846154
9.32929863315076 42.5076923076923
9.34466403909028 42.4153846153846
9.3600294450298 42.2
9.37539485096931 42.2923076923077
9.39076025690883 42.3230769230769
9.40612566284835 42.4461538461538
9.42149106878787 42.4153846153846
9.43685647472739 42.1384615384615
9.45222188066691 42.2769230769231
9.46758728660643 42.2615384615385
9.48295269254595 42.2153846153846
9.49831809848547 42.2769230769231
9.51368350442499 42.1076923076923
9.52904891036451 42.1692307692308
9.54441431630403 42.2461538461538
9.55977972224355 42.3384615384615
9.57514512818307 42.2153846153846
9.59051053412259 42.4307692307692
9.60587594006211 42.0923076923077
9.62124134600163 42.3076923076923
9.63660675194114 42.2923076923077
9.65197215788066 42.1230769230769
9.66733756382018 42.4461538461538
9.6827029697597 42.1692307692308
9.69806837569922 42.2923076923077
9.71343378163874 42.2153846153846
9.72879918757826 42.3846153846154
9.74416459351778 42.3384615384615
9.7595299994573 42.3692307692308
9.77489540539682 42.4923076923077
9.79026081133634 42.7846153846154
9.80562621727586 42.6153846153846
9.82099162321538 43.0461538461539
9.8363570291549 43.2
9.85172243509442 43.5692307692308
9.86708784103394 44.4
9.88245324697346 44.4461538461538
9.89781865291297 45.1230769230769
9.91318405885249 45.2461538461538
9.92854946479201 44.8461538461538
9.94391487073153 43.9230769230769
9.95928027667105 42.8923076923077
9.97464568261057 42.5076923076923
9.99001108855009 42.7538461538462
10.0053764944896 42.6
10.0207419004291 42.2307692307692
10.0361073063686 42.0769230769231
10.0514727123082 42.2153846153846
10.0668381182477 42.7230769230769
10.0822035241872 42.1846153846154
10.0975689301267 42.4307692307692
10.1129343360662 42.5076923076923
10.1282997420058 42.7846153846154
10.1436651479453 42.5076923076923
10.1590305538848 42.3384615384615
10.1743959598243 42.2
10.1897613657638 42.2307692307692
10.2051267717034 42.4307692307692
10.2204921776429 42.2
10.2358575835824 42.3846153846154
10.2512229895219 42.2153846153846
10.2665883954614 42.0769230769231
10.281953801401 42.0769230769231
10.2973192073405 42.1538461538462
10.31268461328 42.4923076923077
10.3280500192195 42.2
10.343415425159 42.3230769230769
10.3587808310986 42.3538461538462
10.3741462370381 42.3538461538462
10.3895116429776 42.6461538461538
10.4048770489171 42.2923076923077
10.4202424548566 42.2769230769231
10.4356078607962 41.8923076923077
10.4509732667357 42.3384615384615
10.4663386726752 42.1384615384615
10.4817040786147 42.3538461538462
10.4970694845542 41.9230769230769
10.5124348904938 42.0307692307692
10.5278002964333 41.8615384615385
10.5431657023728 42.2615384615385
10.5585311083123 41.9384615384615
10.5738965142518 42.4923076923077
10.5892619201913 42.7076923076923
10.6046273261309 41.9076923076923
10.6199927320704 42.1384615384615
10.6353581380099 42.4307692307692
10.6507235439494 42.4
10.6660889498889 42.4
10.6814543558285 42.5538461538462
10.696819761768 42.8307692307692
10.7121851677075 42.4769230769231
10.727550573647 42.3384615384615
10.7429159795865 42.6615384615385
10.7582813855261 42.9384615384615
10.7736467914656 43.0615384615385
10.7890121974051 43.2615384615385
10.8043776033446 44.0615384615385
10.8197430092841 43.8
10.8351084152237 44.5384615384615
10.8504738211632 45.4923076923077
10.8658392271027 46
10.8812046330422 47.1846153846154
10.8965700389817 49.2615384615385
10.9119354449213 51.3230769230769
10.9273008508608 53.7384615384615
10.9426662568003 57.1384615384615
10.9580316627398 61.7384615384615
10.9733970686793 66.2153846153846
10.9887624746189 70.4
11.0041278805584 72.6615384615385
11.0194932864979 69.3076923076923
11.0348586924374 61.8615384615385
11.0502240983769 54.3076923076923
11.0655895043164 49.9230769230769
11.080954910256 47.8153846153846
11.0963203161955 47.9076923076923
11.111685722135 48.3846153846154
11.1270511280745 50.7538461538462
11.142416534014 53.4615384615385
11.1577819399536 55.8153846153846
11.1731473458931 60.4
11.1885127518326 64.8153846153846
11.2038781577721 68.1692307692308
11.2192435637116 72.2153846153846
11.2346089696512 72.6923076923077
11.2499743755907 65.6153846153846
11.2653397815302 57.9538461538462
11.2807051874697 50.9230769230769
11.2960705934092 45.9230769230769
11.3114359993488 44.7076923076923
11.3268014052883 44.3692307692308
11.3421668112278 43.6
11.3575322171673 42.9230769230769
11.3728976231068 43
11.3882630290464 43.2923076923077
11.4036284349859 42.4307692307692
11.4189938409254 42.5230769230769
11.4343592468649 42.6923076923077
11.4497246528044 42.6461538461538
11.465090058744 42.7846153846154
11.4804554646835 42.8153846153846
11.495820870623 42.4
11.5111862765625 42.2615384615385
11.526551682502 42.5692307692308
11.5419170884416 42.3230769230769
11.5572824943811 42.4153846153846
11.5726479003206 42.4153846153846
11.5880133062601 42.2153846153846
11.6033787121996 42.5846153846154
11.6187441181391 42.7692307692308
11.6341095240787 42.7076923076923
11.6494749300182 42.2769230769231
11.6648403359577 42.1846153846154
11.6802057418972 42.3076923076923
11.6955711478367 42.5076923076923
11.7109365537763 42.5692307692308
11.7263019597158 42.7076923076923
11.7416673656553 43.1384615384615
11.7570327715948 42.6307692307692
11.7723981775343 42.5846153846154
11.7877635834739 43.0615384615385
11.8031289894134 43.2307692307692
11.8184943953529 42.9846153846154
11.8338598012924 43.5384615384615
11.8492252072319 43.7384615384615
11.8645906131715 43.9076923076923
11.879956019111 44.4615384615385
11.8953214250505 45.9230769230769
11.91068683099 46.5384615384615
11.9260522369295 47.8615384615385
11.9414176428691 49.6
11.9567830488086 51.9692307692308
11.9721484547481 53.5846153846154
11.9875138606876 54.9846153846154
12.0028792666271 57.9846153846154
12.0182446725667 57.4769230769231
12.0336100785062 58.1538461538462
12.0489754844457 60.2461538461538
12.0643408903852 60.9846153846154
12.0797062963247 64.3846153846154
12.0950717022642 66.0923076923077
12.1104371082038 64.3076923076923
12.1258025141433 60.3692307692308
12.1411679200828 54.8923076923077
12.1565333260223 50.1384615384615
12.1718987319618 46.1230769230769
12.1872641379014 44.4153846153846
12.2026295438409 43.8461538461538
12.2179949497804 44.0307692307692
12.2333603557199 43.3538461538462
12.2487257616594 43.4153846153846
12.264091167599 43.8
12.2794565735385 43.9692307692308
12.294821979478 44.3076923076923
12.3101873854175 45.5692307692308
12.325552791357 45.7538461538462
12.3409181972966 46.7538461538462
12.3562836032361 48.4
12.3716490091756 50.4461538461538
12.3870144151151 54.1230769230769
12.4023798210546 57.2153846153846
12.4177452269942 63.0769230769231
12.4331106329337 66.9846153846154
12.4484760388732 72.4615384615385
12.4638414448127 80.0307692307692
12.4792068507522 85.1538461538462
12.4945722566918 85.1076923076923
12.5099376626313 77.0307692307692
12.5253030685708 65.2307692307692
12.5406684745103 55.5230769230769
12.5560338804498 49.0615384615385
12.5713992863894 46.2
12.5867646923289 44.7384615384615
12.6021300982684 43.9230769230769
12.6174955042079 43.3846153846154
12.6328609101474 43.3230769230769
12.6482263160869 42.9692307692308
12.6635917220265 42.8153846153846
12.678957127966 42.1538461538462
12.6943225339055 42.7538461538462
12.709687939845 42.6153846153846
12.7250533457845 42.4153846153846
12.7404187517241 42.5692307692308
12.7557841576636 42.5230769230769
12.7711495636031 42.4461538461538
12.7865149695426 42.4461538461538
12.8018803754821 42.4923076923077
12.8172457814217 42.4
12.8326111873612 42.6
12.8479765933007 42.4769230769231
12.8633419992402 42.2615384615385
12.8787074051797 42.5538461538462
12.8940728111193 42.9538461538462
12.9094382170588 42.5846153846154
12.9248036229983 42.5538461538462
12.9401690289378 42.3538461538462
12.9555344348773 42.4923076923077
12.9708998408169 42.4923076923077
12.9862652467564 42.5384615384615
13.0016306526959 42.0461538461539
13.0169960586354 42.5538461538462
13.0323614645749 42.3384615384615
13.0477268705145 42.4461538461538
13.063092276454 42.1538461538462
13.0784576823935 42.6153846153846
13.093823088333 42.6615384615385
13.1091884942725 42.7538461538462
13.124553900212 42.7846153846154
13.1399193061516 42.7076923076923
13.1552847120911 42.8153846153846
13.1706501180306 42.7538461538462
13.1860155239701 42.6307692307692
13.2013809299096 42.3384615384615
13.2167463358492 42.2923076923077
13.2321117417887 42.5076923076923
13.2474771477282 42.1846153846154
13.2628425536677 41.9538461538462
13.2782079596072 42.1538461538462
13.2935733655468 42.4615384615385
13.3089387714863 41.5230769230769
13.3243041774258 42.1692307692308
13.3396695833653 42.0307692307692
13.3550349893048 42.1384615384615
13.3704003952444 42.2
13.3857658011839 42.1692307692308
13.4011312071234 42.1692307692308
13.4164966130629 41.9692307692308
13.4318620190024 42.3230769230769
13.447227424942 41.8
13.4625928308815 42.2461538461538
13.477958236821 41.9846153846154
13.4933236427605 41.9538461538462
13.5086890487 42.3076923076923
13.5240544546396 42.1692307692308
13.5394198605791 41.9846153846154
13.5547852665186 42.0307692307692
13.5701506724581 42.0307692307692
13.5855160783976 42.3692307692308
13.6008814843372 42.2769230769231
13.6162468902767 42
13.6316122962162 42.1384615384615
13.6469777021557 42.2
13.6623431080952 42.4923076923077
13.6777085140347 42.2
13.6930739199743 42.3230769230769
13.7084393259138 42.3846153846154
13.7238047318533 42.4923076923077
13.7391701377928 42.5230769230769
13.7545355437323 42.2461538461538
13.7699009496719 42.3846153846154
13.7852663556114 42.3076923076923
13.8006317615509 42.3384615384615
13.8159971674904 42.0769230769231
13.8313625734299 42.5384615384615
13.8467279793695 42.6923076923077
13.862093385309 42.8
13.8774587912485 42.4615384615385
13.892824197188 42.8923076923077
13.9081896031275 42.9076923076923
13.9235550090671 42.7538461538462
13.9389204150066 43.0461538461539
13.9542858209461 44.1384615384615
13.9696512268856 43.6769230769231
13.9850166328251 44.5846153846154
14.0003820387647 45.2153846153846
14.0157474447042 47.0615384615385
14.0311128506437 48.4307692307692
14.0464782565832 50.1384615384615
14.0618436625227 53.3230769230769
14.0772090684623 56.0461538461539
14.0925744744018 59.7076923076923
14.1079398803413 65.4461538461538
14.1233052862808 70.6461538461539
14.1386706922203 77.3692307692308
14.1540360981598 81.6307692307692
14.1694015040994 82.0615384615385
14.1847669100389 74.3384615384615
14.2001323159784 66.8153846153846
14.2154977219179 59.8923076923077
14.2308631278574 54.1846153846154
14.246228533797 50.8153846153846
14.2615939397365 50.8769230769231
14.276959345676 51.8615384615385
14.2923247516155 52.6
14.307690157555 53.4
14.3230555634946 56.5846153846154
14.3384209694341 56.8615384615385
14.3537863753736 56.5076923076923
14.3691517813131 53.2615384615385
14.3845171872526 49.3384615384615
14.3998825931922 46.8769230769231
14.4152479991317 44.7230769230769
14.4306134050712 43.6461538461538
14.4459788110107 42.9692307692308
14.4613442169502 42.6461538461538
14.4767096228898 42.6307692307692
14.4920750288293 42.6307692307692
14.5074404347688 42.4461538461538
14.5228058407083 42.4
14.5381712466478 42.6307692307692
14.5535366525874 42.6461538461538
14.5689020585269 42.3846153846154
14.5842674644664 42.2307692307692
14.5996328704059 42.1230769230769
14.6149982763454 41.9230769230769
14.630363682285 42.4153846153846
14.6457290882245 42.2769230769231
14.661094494164 42.6
14.6764599001035 42.2769230769231
14.691825306043 42.6307692307692
14.7071907119825 42.5538461538462
14.7225561179221 41.8769230769231
14.7379215238616 42.1230769230769
14.7532869298011 41.9384615384615
14.7686523357406 42.1846153846154
14.7840177416801 41.8769230769231
14.7993831476197 42.1076923076923
14.8147485535592 42.1846153846154
14.8301139594987 42.3846153846154
14.8454793654382 42.2923076923077
14.8608447713777 42.1692307692308
14.8762101773173 42.3846153846154
14.8915755832568 42.4923076923077
14.9069409891963 42.4615384615385
14.9223063951358 42.7846153846154
14.9376718010753 42.5230769230769
14.9530372070149 42.7230769230769
14.9684026129544 42.7692307692308
14.9837680188939 42.5384615384615
14.9991334248334 42.6
15.0144988307729 42.0461538461539
15.0298642367125 42.1076923076923
15.045229642652 41.8307692307692
15.0605950485915 41.8307692307692
15.075960454531 41.6
15.0913258604705 41.8153846153846
15.1066912664101 41.9076923076923
15.1220566723496 41.8153846153846
15.1374220782891 41.9692307692308
15.1527874842286 42.2307692307692
15.1681528901681 41.7230769230769
15.1835182961076 41.8153846153846
15.1988837020472 42.0461538461539
15.2142491079867 41.8307692307692
15.2296145139262 41.9384615384615
15.2449799198657 42.1076923076923
15.2603453258052 41.9692307692308
15.2757107317448 41.9846153846154
15.2910761376843 42.0769230769231
15.3064415436238 42.1384615384615
15.3218069495633 41.5846153846154
15.3371723555028 42.0923076923077
15.3525377614424 41.8307692307692
15.3679031673819 42.1846153846154
15.3832685733214 42.1384615384615
15.3986339792609 41.9076923076923
15.4139993852004 42.1076923076923
15.42936479114 41.9384615384615
15.4447301970795 41.8461538461538
15.460095603019 41.9230769230769
15.4754610089585 41.7538461538462
15.490826414898 42.3538461538462
15.5061918208376 42.2923076923077
15.5215572267771 42.0769230769231
15.5369226327166 42.1076923076923
15.5522880386561 42.4153846153846
15.5676534445956 41.9230769230769
15.5830188505352 42.3692307692308
15.5983842564747 41.9692307692308
15.6137496624142 42.1692307692308
15.6291150683537 42.6
15.6444804742932 42.3692307692308
15.6598458802328 42.2
15.6752112861723 42.4307692307692
15.6905766921118 43.1076923076923
15.7059420980513 42.8461538461538
15.7213075039908 43.1846153846154
15.7366729099303 43.6923076923077
15.7520383158699 44
15.7674037218094 44.4
15.7827691277489 45.4307692307692
15.7981345336884 46.2153846153846
15.8134999396279 47.3692307692308
15.8288653455675 48.5538461538462
15.844230751507 50.4461538461538
15.8595961574465 52.0923076923077
15.874961563386 53.8461538461538
15.8903269693255 53.8153846153846
15.9056923752651 52.5076923076923
15.9210577812046 51.6153846153846
15.9364231871441 48.9846153846154
15.9517885930836 46.6153846153846
15.9671539990231 45.5230769230769
15.9825194049627 44.4153846153846
15.9978848109022 44.2
16.0132502168417 44.3230769230769
16.0286156227812 44.9076923076923
16.0439810287207 45.8615384615385
16.0593464346603 46.7692307692308
16.0747118405998 47.5076923076923
16.0900772465393 48.6615384615385
16.1054426524788 49.9076923076923
16.1208080584183 51.3230769230769
16.1361734643579 52.2307692307692
16.1515388702974 50.7230769230769
16.1669042762369 48.2153846153846
16.1822696821764 46.7384615384615
16.1976350881159 45.3692307692308
16.2130004940555 44.1384615384615
16.228365899995 43.5846153846154
16.2437313059345 43.4923076923077
16.259096711874 43.7384615384615
16.2744621178135 44.2923076923077
16.289827523753 44.7384615384615
16.3051929296926 45.8615384615385
16.3205583356321 45.9538461538462
16.3359237415716 47.5692307692308
16.3512891475111 48.9538461538462
16.3666545534506 49.8
16.3820199593902 52.2923076923077
16.3973853653297 53.9538461538462
16.4127507712692 56.6153846153846
16.4281161772087 57.9538461538462
16.4434815831482 57.9538461538462
16.4588469890878 56.5076923076923
16.4742123950273 53.3538461538462
16.4895778009668 50.3692307692308
16.5049432069063 47.7538461538462
16.5203086128458 45.1076923076923
16.5356740187854 44
16.5510394247249 43.2615384615385
16.5664048306644 43.3230769230769
16.5817702366039 42.8769230769231
16.5971356425434 42.7384615384615
16.612501048483 42.5846153846154
16.6278664544225 42.4923076923077
16.643231860362 42.5384615384615
16.6585972663015 42.7076923076923
16.673962672241 42.3692307692308
16.6893280781806 42.2153846153846
16.7046934841201 42.2769230769231
16.7200588900596 42.5538461538462
16.7354242959991 42.1846153846154
16.7507897019386 42.5692307692308
16.7661551078781 42.6307692307692
16.7815205138177 42.6461538461538
16.7968859197572 43.0923076923077
16.8122513256967 43.3230769230769
16.8276167316362 43.4153846153846
16.8429821375757 44.1538461538462
16.8583475435153 44.4923076923077
16.8737129494548 45.2307692307692
16.8890783553943 45.8307692307692
16.9044437613338 45.9076923076923
16.9198091672733 47.4153846153846
16.9351745732129 49.1384615384615
16.9505399791524 49.4
16.9659053850919 51.7538461538462
16.9812707910314 53.3230769230769
16.9966361969709 55.5384615384615
17.0120016029105 57.0153846153846
17.02736700885 56.0153846153846
17.0427324147895 54.5538461538462
17.058097820729 51.3230769230769
17.0734632266685 50.0923076923077
17.0888286326081 47.2
17.1041940385476 46.0153846153846
17.1195594444871 45.3846153846154
17.1349248504266 45.2461538461538
17.1502902563661 45.1230769230769
17.1656556623057 45.2307692307692
17.1810210682452 45.3846153846154
17.1963864741847 46.2769230769231
17.2117518801242 46.3538461538462
17.2271172860637 47.3076923076923
17.2424826920033 47.2461538461538
17.2578480979428 47.7692307692308
17.2732135038823 49.5230769230769
17.2885789098218 49.8153846153846
17.3039443157613 51.9538461538462
17.3193097217008 54.0153846153846
17.3346751276404 58.4153846153846
17.3500405335799 61.4153846153846
17.3654059395194 67.8461538461538
17.3807713454589 73.4153846153846
17.3961367513984 80.1538461538462
17.411502157338 87.8153846153846
17.4268675632775 95.5538461538462
17.442232969217 98.4923076923077
17.4575983751565 99.8461538461538
17.472963781096 101.892307692308
17.4883291870356 104.753846153846
17.5036945929751 115.230769230769
17.5190599989146 123.046153846154
17.5344254048541 136.861538461538
17.5497908107936 147.892307692308
17.5651562167332 144.738461538462
17.5805216226727 129.6
17.5958870286122 105.538461538462
17.6112524345517 89.9076923076923
17.6266178404912 73.2307692307692
17.6419832464308 59.9692307692308
17.6573486523703 53.7230769230769
17.6727140583098 50.0769230769231
17.6880794642493 48.4
17.7034448701888 47.4461538461538
17.7188102761284 46.5230769230769
17.7341756820679 46.6
17.7495410880074 46.5384615384615
17.7649064939469 46.6769230769231
17.7802718998864 47.1692307692308
17.7956373058259 47.3846153846154
17.8110027117655 47.0923076923077
17.826368117705 48.2153846153846
17.8417335236445 47.8461538461538
17.857098929584 46.8461538461538
17.8724643355235 46.2
17.8878297414631 45.3076923076923
17.9031951474026 45.2307692307692
17.9185605533421 44.1230769230769
17.9339259592816 43.7692307692308
17.9492913652211 43.1076923076923
17.9646567711607 43.6769230769231
17.9800221771002 43.0615384615385
17.9953875830397 43.2923076923077
18.0107529889792 43.1846153846154
18.0261183949187 43.0615384615385
18.0414838008583 43.0615384615385
18.0568492067978 43.0307692307692
18.0722146127373 43.1538461538462
18.0875800186768 43.4153846153846
18.1029454246163 43.6
18.1183108305559 43.6153846153846
18.1336762364954 44.1846153846154
18.1490416424349 43.7846153846154
18.1644070483744 44.1538461538462
18.1797724543139 44.8153846153846
18.1951378602535 45.2923076923077
18.210503266193 45.6461538461538
18.2258686721325 46.9076923076923
18.241234078072 47.6307692307692
18.2565994840115 49.9230769230769
18.2719648899511 51.0461538461539
18.2873302958906 53.1384615384615
18.3026957018301 55.0461538461539
18.3180611077696 57.8153846153846
18.3334265137091 60.5692307692308
18.3487919196486 64.4307692307692
18.3641573255882 66.4461538461538
18.3795227315277 67.0615384615385
18.3948881374672 64.8769230769231
18.4102535434067 60.4923076923077
18.4256189493462 57
18.4409843552858 53.1692307692308
18.4563497612253 49.5230769230769
18.4717151671648 47.0461538461539
18.4870805731043 46.0153846153846
18.5024459790438 44.5076923076923
18.5178113849834 44.8615384615385
18.5331767909229 44.4615384615385
18.5485421968624 43.8923076923077
18.5639076028019 44.0153846153846
18.5792730087414 44.0461538461539
18.594638414681 44.5230769230769
18.6100038206205 44.3230769230769
18.62536922656 44.4923076923077
18.6407346324995 44.5846153846154
18.656100038439 45.2923076923077
18.6714654443786 45.6923076923077
18.6868308503181 46.8153846153846
18.7021962562576 47.0307692307692
18.7175616621971 47.1538461538462
18.7329270681366 47.5230769230769
18.7482924740762 46.7384615384615
18.7636578800157 46.4153846153846
18.7790232859552 45.3384615384615
18.7943886918947 44.4615384615385
18.8097540978342 43.7384615384615
18.8251195037737 43.1076923076923
18.8404849097133 43.5384615384615
18.8558503156528 43.5384615384615
18.8712157215923 43.3384615384615
18.8865811275318 43.1538461538462
18.9019465334713 44.0307692307692
18.9173119394109 43.5846153846154
18.9326773453504 44.1076923076923
18.9480427512899 43.8615384615385
18.9634081572294 44.3076923076923
18.9787735631689 44.3230769230769
18.9941389691085 44.7538461538462
19.009504375048 45.0307692307692
19.0248697809875 45.2769230769231
19.040235186927 45.0769230769231
19.0556005928665 44.8461538461538
19.0709659988061 45.8153846153846
19.0863314047456 46.1846153846154
19.1016968106851 46.0615384615385
19.1170622166246 46.8615384615385
19.1324276225641 46.8923076923077
19.1477930285037 46.8
19.1631584344432 45.4153846153846
19.1785238403827 45.2307692307692
19.1938892463222 45.5230769230769
19.2092546522617 44.2153846153846
19.2246200582013 44.2
19.2399854641408 43.6769230769231
19.2553508700803 43.8615384615385
19.2707162760198 43.8923076923077
19.2860816819593 43.7384615384615
19.3014470878989 44.3230769230769
19.3168124938384 44.0153846153846
19.3321778997779 44.5538461538462
19.3475433057174 43.8923076923077
19.3629087116569 45.4307692307692
19.3782741175964 44.9692307692308
19.393639523536 46.5846153846154
19.4090049294755 46.8307692307692
19.424370335415 48.1230769230769
19.4397357413545 50.2615384615385
19.455101147294 52.0461538461539
19.4704665532336 53.5076923076923
19.4858319591731 57.9538461538462
19.5011973651126 61.2153846153846
19.5165627710521 66.0615384615385
19.5319281769916 68.6923076923077
19.5472935829312 74.6
19.5626589888707 80.2615384615385
19.5780243948102 84.8153846153846
19.5933898007497 88.7076923076923
19.6087552066892 88.7846153846154
19.6241206126288 84.7846153846154
19.6394860185683 78.2
19.6548514245078 74.7538461538462
19.6702168304473 71.8307692307692
19.6855822363868 69.1538461538462
19.7009476423264 66.9692307692308
19.7163130482659 66.8153846153846
19.7316784542054 63.0153846153846
19.7470438601449 58.3692307692308
19.7624092660844 55.3538461538462
19.777774672024 52.4923076923077
19.7931400779635 49.1846153846154
19.808505483903 47.4923076923077
19.8238708898425 45.7384615384615
19.839236295782 46.0307692307692
19.8546017017215 45.3230769230769
19.8699671076611 45.3230769230769
19.8853325136006 45.6
19.9006979195401 46.2
19.9160633254796 45.4615384615385
19.9314287314191 44.8461538461538
19.9467941373587 44.3846153846154
19.9621595432982 44.3538461538462
19.9775249492377 44.1692307692308
19.9928903551772 43.9230769230769
20.0082557611167 43.5846153846154
20.0236211670563 43.0461538461539
20.0389865729958 42.8769230769231
20.0543519789353 43.2769230769231
20.0697173848748 43.0461538461539
20.0850827908143 42.9076923076923
20.1004481967539 43.0153846153846
20.1158136026934 42.6153846153846
20.1311790086329 43.1384615384615
20.1465444145724 42.8153846153846
20.1619098205119 43.2153846153846
20.1772752264515 43.4153846153846
20.192640632391 43.3846153846154
20.2080060383305 42.8615384615385
20.22337144427 43.5076923076923
20.2387368502095 43.1230769230769
20.2541022561491 43.6307692307692
20.2694676620886 43.6461538461538
20.2848330680281 43.0307692307692
20.3001984739676 43.5692307692308
20.3155638799071 43.7538461538462
20.3309292858467 43.7692307692308
20.3462946917862 43.8153846153846
20.3616600977257 43.7846153846154
20.3770255036652 43.8769230769231
20.3923909096047 43.8153846153846
20.4077563155442 43.8923076923077
20.4231217214838 44.3230769230769
20.4384871274233 44.4615384615385
20.4538525333628 45.4153846153846
20.4692179393023 45.8461538461538
20.4845833452418 46.5538461538462
20.4999487511814 46.7384615384615
20.5153141571209 47.8307692307692
20.5306795630604 49.1384615384615
20.5460449689999 50.8461538461538
20.5614103749394 52.8
20.576775780879 54.1076923076923
20.5921411868185 56.3538461538462
20.607506592758 59.3384615384615
20.6228719986975 60.3384615384615
20.638237404637 62.0615384615385
20.6536028105766 60.1846153846154
20.6689682165161 55.8615384615385
20.6843336224556 55.0615384615385
20.6996990283951 53.8923076923077
20.7150644343346 52.9076923076923
20.7304298402742 51.9538461538462
20.7457952462137 52.8461538461538
20.7611606521532 54.7846153846154
20.7765260580927 57.2615384615385
20.7918914640322 60.8615384615385
20.8072568699718 63.4
20.8226222759113 66.2461538461538
20.8379876818508 71.0461538461538
20.8533530877903 77.5692307692308
20.8687184937298 81.7692307692308
20.8840838996693 83.7230769230769
20.8994493056089 85.6
20.9148147115484 88.5384615384615
20.9301801174879 98.0923076923077
20.9455455234274 101.938461538462
20.9609109293669 111.169230769231
20.9762763353065 119.969230769231
20.991641741246 129.076923076923
21.0070071471855 135.076923076923
21.022372553125 129.461538461538
21.0377379590645 115
21.0531033650041 100.476923076923
21.0684687709436 90.4615384615385
21.0838341768831 78.7846153846154
21.0991995828226 65.2153846153846
21.1145649887621 58.1692307692308
21.1299303947017 53.5692307692308
21.1452958006412 50.8153846153846
21.1606612065807 48.6461538461538
21.1760266125202 47.6615384615385
21.1913920184597 46.6153846153846
21.2067574243993 45.8153846153846
21.2221228303388 45.3692307692308
21.2374882362783 44.7538461538462
21.2528536422178 44.9692307692308
21.2682190481573 44.6
21.2835844540969 43.9384615384615
21.2989498600364 43.3846153846154
21.3143152659759 43.4769230769231
21.3296806719154 43.7230769230769
21.3450460778549 43.4
21.3604114837945 43.1384615384615
21.375776889734 43.1538461538462
21.3911422956735 43.6
21.406507701613 43.2461538461538
21.4218731075525 43.2615384615385
21.437238513492 43.3076923076923
21.4526039194316 43.1230769230769
21.4679693253711 43.0153846153846
21.4833347313106 43.1384615384615
21.4987001372501 42.8769230769231
21.5140655431896 43.2307692307692
21.5294309491292 42.8769230769231
21.5447963550687 43.0769230769231
21.5601617610082 42.9846153846154
21.5755271669477 43.1384615384615
21.5908925728872 43.1230769230769
21.6062579788268 43.0923076923077
21.6216233847663 42.7846153846154
21.6369887907058 42.7538461538462
21.6523541966453 42.9076923076923
21.6677196025848 43.1230769230769
21.6830850085244 43.0307692307692
21.6984504144639 43.0769230769231
21.7138158204034 43.4307692307692
21.7291812263429 43.0923076923077
21.7445466322824 42.9076923076923
21.759912038222 42.9384615384615
21.7752774441615 42.9384615384615
21.790642850101 43.2461538461538
21.8060082560405 42.9692307692308
21.82137366198 43.1076923076923
21.8367390679196 43.5076923076923
21.8521044738591 43.1230769230769
21.8674698797986 43.7538461538462
21.8828352857381 43.4307692307692
21.8982006916776 43.4769230769231
21.9135660976171 43.3538461538462
21.9289315035567 43.8461538461538
21.9442969094962 43.9846153846154
21.9596623154357 44.0769230769231
21.9750277213752 44.0923076923077
21.9903931273147 44.2
22.0057585332543 45.0307692307692
22.0211239391938 44.7846153846154
22.0364893451333 45.1230769230769
22.0518547510728 45.5076923076923
22.0672201570123 45.2153846153846
22.0825855629519 45.5692307692308
22.0979509688914 46.1846153846154
22.1133163748309 46.2153846153846
22.1286817807704 46.9846153846154
22.1440471867099 47.2923076923077
22.1594125926495 47.5384615384615
22.174777998589 48.6923076923077
22.1901434045285 49.4923076923077
22.205508810468 48.9538461538462
22.2208742164075 50.3384615384615
22.2362396223471 50.8923076923077
22.2516050282866 51.3076923076923
22.2669704342261 51.4
22.2823358401656 51.3384615384615
22.2977012461051 50.3230769230769
22.3130666520447 49.0461538461539
22.3284320579842 48.4307692307692
22.3437974639237 47.3846153846154
22.3591628698632 47.8923076923077
22.3745282758027 47.9384615384615
22.3898936817423 47.4461538461538
22.4052590876818 48.1384615384615
22.4206244936213 50.1230769230769
22.4359898995608 52.4153846153846
22.4513553055003 54.2615384615385
22.4667207114398 56.5384615384615
22.4820861173794 58.2769230769231
22.4974515233189 61.2615384615385
22.5128169292584 61.9692307692308
22.5281823351979 66.0769230769231
22.5435477411374 65.3692307692308
22.558913147077 67.4
22.5742785530165 68.4461538461538
22.589643958956 64.0153846153846
22.6050093648955 60.6153846153846
22.620374770835 57.6923076923077
22.6357401767746 55.1076923076923
22.6511055827141 52.3384615384615
22.6664709886536 49.0769230769231
22.6818363945931 47.4769230769231
22.6972018005326 46.5692307692308
22.7125672064722 46.3384615384615
22.7279326124117 46.2615384615385
22.7432980183512 46.2153846153846
22.7586634242907 46.1692307692308
22.7740288302302 47.1230769230769
22.7893942361698 47.1846153846154
22.8047596421093 47.4307692307692
22.8201250480488 48.2923076923077
22.8354904539883 49.7846153846154
22.8508558599278 50.6307692307692
22.8662212658674 50.1076923076923
22.8815866718069 50.0615384615385
22.8969520777464 50.4153846153846
22.9123174836859 49.2769230769231
22.9276828896254 49.4153846153846
22.943048295565 49.1230769230769
22.9584137015045 50.7846153846154
22.973779107444 51.1846153846154
22.9891445133835 51.6923076923077
23.004509919323 53.8153846153846
23.0198753252625 55.1230769230769
23.0352407312021 57.0769230769231
23.0506061371416 57.5076923076923
23.0659715430811 58.0153846153846
23.0813369490206 55.2307692307692
23.0967023549601 54
23.1120677608997 52.4
23.1274331668392 51.8923076923077
23.1427985727787 50.1076923076923
23.1581639787182 48.8153846153846
23.1735293846577 48.7692307692308
23.1888947905973 48.3384615384615
23.2042601965368 48.8615384615385
23.2196256024763 49.9846153846154
23.2349910084158 50.0307692307692
23.2503564143553 50.4923076923077
23.2657218202949 51.5076923076923
23.2810872262344 52.0615384615385
23.2964526321739 53.9230769230769
23.3118180381134 54.7230769230769
23.3271834440529 57.0153846153846
23.3425488499925 57.5692307692308
23.357914255932 58.3538461538462
23.3732796618715 58.5384615384615
23.388645067811 56.0307692307692
23.4040104737505 52.5538461538462
23.4193758796901 51.8
23.4347412856296 50.0769230769231
23.4501066915691 47.9076923076923
23.4654720975086 45.8307692307692
23.4808375034481 45.0307692307692
23.4962029093876 44.6615384615385
23.5115683153272 44.0461538461539
23.5269337212667 44.4153846153846
23.5422991272062 43.5076923076923
23.5576645331457 44.1230769230769
23.5730299390852 43.3846153846154
23.5883953450248 43.5230769230769
23.6037607509643 43.3692307692308
23.6191261569038 43.8307692307692
23.6344915628433 43.7076923076923
23.6498569687828 43.7692307692308
23.6652223747224 43.4153846153846
23.6805877806619 43.8769230769231
23.6959531866014 43.6923076923077
23.7113185925409 43.9846153846154
23.7266839984804 44.4
23.74204940442 45.0153846153846
23.7574148103595 44.7846153846154
23.772780216299 45.8923076923077
23.7881456222385 45.8
23.803511028178 45.7846153846154
23.8188764341176 45.5538461538462
23.8342418400571 46.4461538461538
23.8496072459966 47.1538461538462
23.8649726519361 47.2615384615385
23.8803380578756 47.8615384615385
23.8957034638152 48.2
23.9110688697547 49.2615384615385
23.9264342756942 48.9692307692308
23.9417996816337 50.4153846153846
23.9571650875732 51.3230769230769
23.9725304935128 53.3076923076923
23.9878958994523 54.6
24.0032613053918 56.2153846153846
24.0186267113313 57.4307692307692
24.0339921172708 58.5384615384615
24.0493575232103 56.2923076923077
24.0647229291499 53.9538461538462
24.0800883350894 53.1538461538462
24.0954537410289 53.0769230769231
24.1108191469684 51.3846153846154
24.1261845529079 50.1538461538462
24.1415499588475 48.9692307692308
24.156915364787 50.2307692307692
24.1722807707265 50.0461538461539
24.187646176666 51.4923076923077
24.2030115826055 52.4461538461538
24.2183769885451 54.6
24.2337423944846 56.5692307692308
24.2491078004241 58.1846153846154
24.2644732063636 61.4307692307692
24.2798386123031 63.1384615384615
24.2952040182427 65.6
24.3105694241822 67.4307692307692
24.3259348301217 67.4923076923077
24.3413002360612 65.5076923076923
24.3566656420007 63.7076923076923
24.3720310479403 61.7230769230769
24.3873964538798 58.1846153846154
24.4027618598193 54.8923076923077
24.4181272657588 52.0769230769231
24.4334926716983 49.1076923076923
24.4488580776379 47.8923076923077
24.4642234835774 46.3538461538462
24.4795888895169 45.6769230769231
24.4949542954564 45.0153846153846
24.5103197013959 44.3846153846154
24.5256851073354 44.7846153846154
24.541050513275 43.9076923076923
24.5564159192145 44.0615384615385
24.571781325154 44.2615384615385
24.5871467310935 44.2461538461538
24.602512137033 44.7692307692308
24.6178775429726 45.0923076923077
24.6332429489121 45.3692307692308
24.6486083548516 45.4923076923077
24.6639737607911 45.4153846153846
24.6793391667306 45.4615384615385
24.6947045726702 45.7692307692308
24.7100699786097 46.7384615384615
24.7254353845492 47.0615384615385
24.7408007904887 48.6461538461538
24.7561661964282 48.8153846153846
24.7715316023678 50.8769230769231
24.7868970083073 52.2769230769231
24.8022624142468 53.4461538461538
24.8176278201863 55.9384615384615
24.8329932261258 58.6
24.8483586320654 59.0769230769231
24.8637240380049 63.7846153846154
24.8790894439444 65.3538461538461
24.8944548498839 65.2461538461538
24.9098202558234 64.1076923076923
24.925185661763 60.3076923076923
24.9405510677025 55.9384615384615
24.955916473642 54.7692307692308
24.9712818795815 51.6307692307692
24.986647285521 49.3692307692308
25.0020126914606 46.9076923076923
25.0173780974001 45.8923076923077
25.0327435033396 44.8615384615385
25.0481089092791 44.6461538461538
25.0634743152186 44.3076923076923
25.0788397211581 43.9538461538462
25.0942051270977 43.6307692307692
25.1095705330372 43.6769230769231
25.1249359389767 43.8923076923077
25.1403013449162 43.6923076923077
25.1556667508557 43.2461538461538
25.1710321567953 43.5384615384615
25.1863975627348 43.0923076923077
25.2017629686743 42.8615384615385
25.2171283746138 42.9230769230769
25.2324937805533 42.8461538461538
25.2478591864929 42.9384615384615
25.2632245924324 42.7230769230769
25.2785899983719 42.6923076923077
25.2939554043114 42.5538461538462
25.3093208102509 42.5076923076923
25.3246862161905 42.6153846153846
25.34005162213 42.7384615384615
25.3554170280695 42.1076923076923
25.370782434009 42.1230769230769
25.3861478399485 42.2769230769231
25.4015132458881 42.4923076923077
25.4168786518276 42.3538461538462
25.4322440577671 42.3538461538462
25.4476094637066 42.5384615384615
25.4629748696461 42.7538461538462
25.4783402755857 42.8769230769231
25.4937056815252 42.6
25.5090710874647 42.4769230769231
25.5244364934042 42.6923076923077
25.5398018993437 42.3538461538462
25.5551673052832 42.6307692307692
25.5705327112228 42.4
25.5858981171623 42.6153846153846
25.6012635231018 42.7230769230769
25.6166289290413 42.4769230769231
25.6319943349808 42.5846153846154
25.6473597409204 42.5846153846154
25.6627251468599 42.2461538461538
25.6780905527994 42.5230769230769
25.6934559587389 43.0307692307692
25.7088213646784 43.1538461538462
25.724186770618 42.6923076923077
25.7395521765575 42.9384615384615
25.754917582497 42.6461538461538
25.7702829884365 43.5230769230769
25.785648394376 43.3230769230769
25.8010138003156 43.2
25.8163792062551 43.5384615384615
25.8317446121946 43.4615384615385
25.8471100181341 44.6461538461538
25.8624754240736 44.6923076923077
25.8778408300132 44.9076923076923
25.8932062359527 44.9846153846154
25.9085716418922 45.7230769230769
25.9239370478317 46.5076923076923
25.9393024537712 46.8769230769231
25.9546678597108 46.9230769230769
25.9700332656503 47.1384615384615
25.9853986715898 47.4615384615385
26.0007640775293 47.5538461538462
26.0161294834688 47.3538461538462
26.0314948894084 47.6615384615385
26.0468602953479 48.0307692307692
26.0622257012874 47.8307692307692
26.0775911072269 48.0615384615385
26.0929565131664 48.9230769230769
26.1083219191059 49.5538461538462
26.1236873250455 50.0769230769231
26.139052730985 51.6769230769231
26.1544181369245 51.4769230769231
26.169783542864 52.8
26.1851489488035 53.1692307692308
26.2005143547431 52.4307692307692
26.2158797606826 49.7076923076923
26.2312451666221 50.0461538461539
26.2466105725616 49.5230769230769
26.2619759785011 48.4769230769231
26.2773413844407 48.0769230769231
26.2927067903802 47.7538461538462
26.3080721963197 47.2923076923077
26.3234376022592 47.4615384615385
26.3388030081987 48.7846153846154
26.3541684141383 48.7076923076923
26.3695338200778 48.5846153846154
26.3848992260173 48.1692307692308
26.4002646319568 49.0307692307692
26.4156300378963 49.4153846153846
26.4309954438359 49.3538461538462
26.4463608497754 49.6307692307692
26.4617262557149 49.6307692307692
26.4770916616544 50.3846153846154
26.4924570675939 48.8615384615385
26.5078224735335 47.8615384615385
26.523187879473 46.6307692307692
26.5385532854125 46.1384615384615
26.553918691352 45.9846153846154
26.5692840972915 45
26.584649503231 43.7538461538462
26.6000149091706 43.4923076923077
26.6153803151101 43.2769230769231
26.6307457210496 42.8
26.6461111269891 42.4923076923077
26.6614765329286 42.5692307692308
26.6768419388682 42.8769230769231
26.6922073448077 42.8307692307692
26.7075727507472 41.9384615384615
26.7229381566867 42.4615384615385
26.7383035626262 42.6615384615385
26.7536689685658 42.5230769230769
26.7690343745053 42.5076923076923
26.7843997804448 42.5230769230769
26.7997651863843 42.6769230769231
26.8151305923238 42.7384615384615
26.8304959982634 43.0615384615385
26.8458614042029 42.8307692307692
26.8612268101424 43.2769230769231
26.8765922160819 43.3538461538462
26.8919576220214 43.1692307692308
26.907323027961 43.1384615384615
26.9226884339005 43.8615384615385
26.93805383984 43.6923076923077
26.9534192457795 43.7692307692308
26.968784651719 43
26.9841500576586 43.6615384615385
26.9995154635981 43.1384615384615
27.0148808695376 43.1846153846154
27.0302462754771 43.5538461538462
27.0456116814166 43.1230769230769
27.0609770873562 43.3692307692308
27.0763424932957 43.6769230769231
27.0917078992352 43.7384615384615
27.1070733051747 43.4307692307692
27.1224387111142 44.0769230769231
27.1378041170537 44.1384615384615
27.1531695229933 44.7538461538462
27.1685349289328 45.3230769230769
27.1839003348723 46.2
27.1992657408118 46.5692307692308
27.2146311467513 47.0153846153846
27.2299965526909 47.1538461538462
27.2453619586304 47.1230769230769
27.2607273645699 46.8153846153846
27.2760927705094 46.4461538461538
27.2914581764489 46.6153846153846
27.3068235823885 45.7384615384615
27.322188988328 45.8615384615385
27.3375543942675 45.1076923076923
27.352919800207 45.0461538461539
27.3682852061465 45.4153846153846
27.3836506120861 45.1230769230769
27.3990160180256 45.5384615384615
27.4143814239651 44.8923076923077
27.4297468299046 45.7538461538462
27.4451122358441 45.8
27.4604776417837 46.5538461538462
27.4758430477232 47.0153846153846
27.4912084536627 47.3384615384615
27.5065738596022 47.9230769230769
27.5219392655417 48.4615384615385
27.5373046714813 48.4615384615385
27.5526700774208 47.8615384615385
27.5680354833603 48.9692307692308
27.5834008892998 49.6307692307692
27.5987662952393 51.2153846153846
27.6141317011788 51.0769230769231
27.6294971071184 52.0307692307692
27.6448625130579 51.9846153846154
27.6602279189974 49.6615384615385
27.6755933249369 49.4769230769231
27.6909587308764 47.6153846153846
27.706324136816 48.7538461538462
27.7216895427555 47.4615384615385
27.737054948695 46.5846153846154
27.7524203546345 46.2615384615385
27.767785760574 45.7230769230769
27.7831511665136 45.5384615384615
27.7985165724531 45.1846153846154
27.8138819783926 44.7538461538462
27.8292473843321 44.7538461538462
27.8446127902716 44.9230769230769
27.8599781962112 44.4
27.8753436021507 44.6461538461538
27.8907090080902 43.6
27.9060744140297 44.4307692307692
27.9214398199692 45.0153846153846
27.9368052259088 44.8615384615385
27.9521706318483 45.0153846153846
27.9675360377878 44.8153846153846
27.9829014437273 44.9384615384615
27.9982668496668 44.6923076923077
28.0136322556064 44.4153846153846
28.0289976615459 44.1384615384615
28.0443630674854 43.8923076923077
28.0597284734249 43.9076923076923
28.0750938793644 44.3076923076923
28.090459285304 43.7230769230769
28.1058246912435 43.4153846153846
28.121190097183 43.4461538461538
28.1365555031225 43.8
28.151920909062 43.5230769230769
28.1672863150015 44.0769230769231
28.1826517209411 44.0923076923077
28.1980171268806 44.5538461538462
28.2133825328201 45.2923076923077
28.2287479387596 45.3846153846154
28.2441133446991 46.4153846153846
28.2594787506387 46.9538461538462
28.2748441565782 48.3230769230769
28.2902095625177 50.3538461538462
28.3055749684572 51.3692307692308
28.3209403743967 52.4461538461538
28.3363057803363 54.5076923076923
28.3516711862758 55.9846153846154
28.3670365922153 57.8153846153846
28.3824019981548 58.9538461538462
28.3977674040943 61.0769230769231
28.4131328100339 64.4
28.4284982159734 63.9230769230769
28.4438636219129 66.8615384615385
28.4592290278524 66.3076923076923
28.4745944337919 65.2769230769231
28.4899598397315 64.1076923076923
28.505325245671 61.1846153846154
28.5206906516105 58.4923076923077
28.53605605755 56.4923076923077
28.5514214634895 55.4923076923077
28.5667868694291 54.5230769230769
28.5821522753686 51.2
28.5975176813081 49.9230769230769
28.6128830872476 49.0615384615385
28.6282484931871 48.6307692307692
28.6436138991266 48.8
28.6589793050662 48.3692307692308
28.6743447110057 48.4153846153846
28.6897101169452 48.3230769230769
28.7050755228847 47.4923076923077
28.7204409288242 46.7692307692308
28.7358063347638 46.7384615384615
28.7511717407033 46.3384615384615
28.7665371466428 45.8923076923077
28.7819025525823 45.5538461538462
28.7972679585218 44.8615384615385
28.8126333644614 44.5384615384615
28.8279987704009 44.4923076923077
28.8433641763404 45.1692307692308
28.8587295822799 44.7846153846154
28.8740949882194 45.1230769230769
28.889460394159 45.4769230769231
28.9048258000985 45.5230769230769
28.920191206038 46.0615384615385
28.9355566119775 46.0153846153846
28.950922017917 45.7692307692308
28.9662874238566 45.5076923076923
28.9816528297961 45.7692307692308
28.9970182357356 45.4615384615385
29.0123836416751 45.8615384615385
29.0277490476146 46.3846153846154
29.0431144535542 45.4
29.0584798594937 46.7384615384615
29.0738452654332 47.0615384615385
29.0892106713727 46.7230769230769
29.1045760773122 47.7538461538462
29.1199414832518 48.3846153846154
29.1353068891913 47.8153846153846
29.1506722951308 48.3230769230769
29.1660377010703 48.5846153846154
29.1814031070098 47.9384615384615
29.1967685129493 47.7076923076923
29.2121339188889 46.8615384615385
29.2274993248284 47.1384615384615
29.2428647307679 47.0461538461539
29.2582301367074 46.3538461538462
29.2735955426469 46.6769230769231
29.2889609485865 47.1692307692308
29.304326354526 46.9384615384615
29.3196917604655 47.6769230769231
29.335057166405 48.2615384615385
29.3504225723445 49.0615384615385
29.3657879782841 49.8461538461538
29.3811533842236 50.7692307692308
29.3965187901631 52.4461538461538
29.4118841961026 52.4769230769231
29.4272496020421 53.1692307692308
29.4426150079817 51.9846153846154
29.4579804139212 50.1692307692308
29.4733458198607 48.9384615384615
29.4887112258002 48.4
29.5040766317397 47.6307692307692
29.5194420376793 46.6
29.5348074436188 44.7538461538462
29.5501728495583 44.4923076923077
29.5655382554978 43.9076923076923
29.5809036614373 43.4153846153846
29.5962690673769 43.5230769230769
29.6116344733164 43
29.6269998792559 42.9846153846154
29.6423652851954 42.9384615384615
29.6577306911349 42.4
29.6730960970744 42.8307692307692
29.688461503014 42.4
29.7038269089535 42.1846153846154
29.719192314893 42.7076923076923
29.7345577208325 42.4153846153846
29.749923126772 42.7230769230769
29.7652885327116 42.2307692307692
29.7806539386511 42.4461538461538
29.7960193445906 42.2923076923077
29.8113847505301 42.6
29.8267501564696 42.4769230769231
29.8421155624092 42.4153846153846
29.8574809683487 42.6307692307692
29.8728463742882 42.8307692307692
29.8882117802277 43.2923076923077
29.9035771861672 43.7384615384615
29.9189425921068 43.4153846153846
29.9343079980463 43.4769230769231
29.9496734039858 43.9538461538462
29.9650388099253 44.1692307692308
29.9804042158648 44.9538461538462
29.9957696218044 44.7384615384615
30.0111350277439 45.9230769230769
30.0265004336834 45.8461538461538
30.0418658396229 46.1384615384615
30.0572312455624 47
30.072596651502 46.4923076923077
30.0879620574415 46.6769230769231
30.103327463381 46.2769230769231
30.1186928693205 46.0307692307692
30.13405827526 46
30.1494236811996 46.6461538461538
30.1647890871391 46.2923076923077
30.1801544930786 45.8153846153846
30.1955198990181 45.6307692307692
30.2108853049576 46.1076923076923
30.2262507108971 45.6615384615385
30.2416161168367 45.0307692307692
30.2569815227762 44.5538461538462
30.2723469287157 44.5384615384615
30.2877123346552 44.3692307692308
30.3030777405947 44.1538461538462
30.3184431465343 43.7538461538462
30.3338085524738 43.4615384615385
30.3491739584133 43.3076923076923
30.3645393643528 42.8923076923077
30.3799047702923 42.6615384615385
30.3952701762319 42.6769230769231
30.4106355821714 42.9384615384615
30.4260009881109 42.3846153846154
30.4413663940504 42.2923076923077
30.4567317999899 42.9384615384615
30.4720972059295 42.5692307692308
30.487462611869 42.3538461538462
30.5028280178085 42.6461538461538
30.518193423748 42.7230769230769
30.5335588296875 42.4769230769231
30.5489242356271 42.8615384615385
30.5642896415666 43.1230769230769
30.5796550475061 43.0769230769231
30.5950204534456 43.3538461538462
30.6103858593851 43.1692307692308
30.6257512653247 42.9538461538462
30.6411166712642 42.8
30.6564820772037 43.1846153846154
30.6718474831432 42.6769230769231
30.6872128890827 42.6153846153846
30.7025782950222 42.8923076923077
30.7179437009618 42.7076923076923
30.7333091069013 42.4923076923077
30.7486745128408 42.3538461538462
30.7640399187803 42.5076923076923
30.7794053247198 42.3230769230769
30.7947707306594 42.4153846153846
30.8101361365989 42.3692307692308
30.8255015425384 42.7692307692308
30.8408669484779 42.3230769230769
30.8562323544174 43.0461538461539
30.871597760357 43.0461538461539
30.8869631662965 42.7846153846154
30.902328572236 42.6461538461538
30.9176939781755 43.3538461538462
30.933059384115 42.9538461538462
30.9484247900546 43.0461538461539
30.9637901959941 42.7538461538462
30.9791556019336 43.1076923076923
30.9945210078731 42.4615384615385
31.0098864138126 42.8
31.0252518197522 42.5230769230769
31.0406172256917 42.2461538461538
31.0559826316312 42.4
31.0713480375707 42.3076923076923
31.0867134435102 42.0923076923077
31.1020788494498 42.1538461538462
31.1174442553893 41.7692307692308
31.1328096613288 41.9692307692308
31.1481750672683 41.8307692307692
31.1635404732078 41.8615384615385
31.1789058791474 41.8923076923077
31.1942712850869 42
31.2096366910264 41.8461538461538
31.2250020969659 41.8307692307692
31.2403675029054 42
31.2557329088449 42.1538461538462
31.2710983147845 41.8923076923077
31.286463720724 42.1538461538462
31.3018291266635 41.6461538461538
31.317194532603 42.3076923076923
31.3325599385425 42.1230769230769
31.3479253444821 41.7846153846154
31.3632907504216 42.4615384615385
31.3786561563611 42.1076923076923
31.3940215623006 42.3384615384615
31.4093869682401 42.6461538461538
31.4247523741797 42.7076923076923
31.4401177801192 42.7538461538462
31.4554831860587 43.2153846153846
31.4708485919982 42.8615384615385
31.4862139979377 43.4153846153846
31.5015794038773 43.1692307692308
31.5169448098168 43.4615384615385
31.5323102157563 43.6769230769231
31.5476756216958 43.3692307692308
31.5630410276353 42.9692307692308
31.5784064335749 42.8461538461538
31.5937718395144 42.8461538461538
31.6091372454539 42.9846153846154
31.6245026513934 42.4923076923077
31.6398680573329 42.7230769230769
31.6552334632725 42.3076923076923
31.670598869212 42.0615384615385
31.6859642751515 42.4923076923077
31.701329681091 42.1230769230769
31.7166950870305 42.3692307692308
31.73206049297 41.8
31.7474258989096 42.4923076923077
31.7627913048491 42.7230769230769
31.7781567107886 42.8153846153846
31.7935221167281 42.6307692307692
31.8088875226676 42.5846153846154
31.8242529286072 42.9076923076923
31.8396183345467 43.1230769230769
31.8549837404862 42.9538461538462
31.8703491464257 43.6923076923077
31.8857145523652 43.6307692307692
31.9010799583048 44.4
31.9164453642443 44.1846153846154
31.9318107701838 44.6307692307692
31.9471761761233 44.1692307692308
31.9625415820628 44.5230769230769
31.9779069880024 44.1384615384615
31.9932723939419 44.1692307692308
32.0086377998814 44.5076923076923
32.0240032058209 44.7692307692308
32.0393686117604 44.5538461538462
32.0547340177 44.7846153846154
32.0700994236395 45.0615384615385
32.085464829579 45.7692307692308
32.1008302355185 45.7538461538462
32.116195641458 45.7538461538462
32.1315610473976 45.2153846153846
32.1469264533371 44.8153846153846
32.1622918592766 44.8615384615385
32.1776572652161 44.7692307692308
32.1930226711556 44.9230769230769
32.2083880770952 44.7384615384615
32.2237534830347 44.5384615384615
32.2391188889742 44.8923076923077
32.2544842949137 44.5846153846154
32.2698497008532 44.8461538461538
32.2852151067927 45.6
32.3005805127323 45.6461538461538
32.3159459186718 44.9846153846154
32.3313113246113 45.0307692307692
32.3466767305508 45.4
32.3620421364903 44.9076923076923
32.3774075424299 44.7692307692308
32.3927729483694 45.0307692307692
32.4081383543089 44.7846153846154
32.4235037602484 45.0615384615385
32.4388691661879 45
32.4542345721275 45.3384615384615
32.469599978067 45.2461538461538
32.4849653840065 45.6769230769231
32.500330789946 45.9538461538462
32.5156961958855 46.2615384615385
32.5310616018251 45.5692307692308
32.5464270077646 45.0615384615385
32.5617924137041 45.2
32.5771578196436 45.0923076923077
32.5925232255831 45.1692307692308
32.6078886315227 44.6615384615385
32.6232540374622 44.7384615384615
32.6386194434017 44.2461538461538
32.6539848493412 44.5076923076923
32.6693502552807 44.2769230769231
32.6847156612203 43.9384615384615
32.7000810671598 44.2153846153846
32.7154464730993 44.3384615384615
32.7308118790388 44.2307692307692
32.7461772849783 44.7538461538462
32.7615426909179 43.8769230769231
32.7769080968574 44.2769230769231
32.7922735027969 43.4
32.8076389087364 44.1846153846154
32.8230043146759 43.2307692307692
32.8383697206154 43.7538461538462
32.853735126555 43.4307692307692
32.8691005324945 43.4769230769231
32.884465938434 43.5076923076923
32.8998313443735 43.5076923076923
32.915196750313 43.5538461538462
32.9305621562526 43.4307692307692
32.9459275621921 44.1076923076923
32.9612929681316 43.8153846153846
32.9766583740711 43.8923076923077
32.9920237800106 43.8615384615385
33.0073891859502 44.1230769230769
33.0227545918897 43.8153846153846
33.0381199978292 44.1538461538462
33.0534854037687 43.9692307692308
33.0688508097082 43.8769230769231
33.0842162156478 44.2769230769231
33.0995816215873 44.6615384615385
33.1149470275268 45.1846153846154
33.1303124334663 45.2307692307692
33.1456778394058 46.0923076923077
33.1610432453454 45.8307692307692
33.1764086512849 46.7538461538462
33.1917740572244 46.1538461538462
33.2071394631639 46.3538461538462
33.2225048691034 45.7692307692308
33.237870275043 45.9692307692308
33.2532356809825 46.7692307692308
33.268601086922 45.8923076923077
33.2839664928615 46.2307692307692
33.299331898801 46.1846153846154
33.3146973047405 45.3538461538462
33.3300627106801 44.3230769230769
33.3454281166196 44.0615384615385
33.3607935225591 44.5846153846154
33.3761589284986 44.3538461538462
33.3915243344381 44.2769230769231
33.4068897403777 43.7692307692308
33.4222551463172 43.6923076923077
33.4376205522567 43.7384615384615
33.4529859581962 43.4923076923077
33.4683513641357 43.5384615384615
33.4837167700753 43.5076923076923
33.4990821760148 42.9538461538462
33.5144475819543 42.9230769230769
33.5298129878938 42.6
33.5451783938333 42.5846153846154
33.5605437997729 42.7076923076923
33.5759092057124 42.4
33.5912746116519 42.3230769230769
33.6066400175914 42.2
33.6220054235309 41.9846153846154
33.6373708294705 41.9692307692308
33.65273623541 41.9846153846154
33.6681016413495 41.7692307692308
33.683467047289 42.0307692307692
33.6988324532285 42.2153846153846
33.7141978591681 42.1230769230769
33.7295632651076 41.8769230769231
33.7449286710471 42
33.7602940769866 42.1692307692308
33.7756594829261 42.1230769230769
33.7910248888657 42.1076923076923
33.8063902948052 42.1076923076923
33.8217557007447 42.1846153846154
33.8371211066842 42.0615384615385
33.8524865126237 42.3846153846154
33.8678519185632 42.0615384615385
33.8832173245028 42.0461538461539
33.8985827304423 42.2615384615385
33.9139481363818 42.1692307692308
33.9293135423213 42.4153846153846
33.9446789482608 42.1076923076923
33.9600443542004 42.4307692307692
33.9754097601399 42.8769230769231
33.9907751660794 43.3076923076923
34.0061405720189 43.0307692307692
34.0215059779584 43.3384615384615
34.036871383898 43.7538461538462
34.0522367898375 43.4769230769231
34.067602195777 44.1230769230769
34.0829676017165 44.7538461538462
34.098333007656 44.9230769230769
34.1136984135956 44.8
34.1290638195351 45.1846153846154
34.1444292254746 45.3384615384615
34.1597946314141 44.9384615384615
34.1751600373536 43.9076923076923
34.1905254432932 43.7538461538462
34.2058908492327 43.7538461538462
34.2212562551722 43.2923076923077
34.2366216611117 43.1076923076923
34.2519870670512 42.9230769230769
34.2673524729908 42.3538461538462
34.2827178789303 42.4461538461538
34.2980832848698 42.4923076923077
34.3134486908093 42.4
34.3288140967488 42.1538461538462
34.3441795026883 42.2307692307692
34.3595449086279 42.1538461538462
34.3749103145674 42.3538461538462
34.3902757205069 42.0615384615385
34.4056411264464 42.1538461538462
34.4210065323859 42
34.4363719383255 41.9692307692308
34.451737344265 42.1076923076923
34.4671027502045 42.1384615384615
34.482468156144 42.0923076923077
34.4978335620835 41.7076923076923
34.5131989680231 42.1538461538462
34.5285643739626 41.4461538461538
34.5439297799021 41.9538461538462
34.5592951858416 41.4307692307692
34.5746605917811 41.8615384615385
34.5900259977207 42.0461538461539
34.6053914036602 41.7846153846154
34.6207568095997 41.4461538461538
34.6361222155392 42
34.6514876214787 42.1538461538462
34.6668530274183 42.0307692307692
34.6822184333578 42
34.6975838392973 42.2153846153846
34.7129492452368 42.1538461538462
34.7283146511763 42.2307692307692
34.7436800571159 42.2769230769231
34.7590454630554 42.1538461538462
34.7744108689949 42.3230769230769
34.7897762749344 42.4615384615385
34.8051416808739 42.4769230769231
34.8205070868135 42.3846153846154
34.835872492753 42.7692307692308
34.8512378986925 42.6
34.866603304632 42.2
34.8819687105715 42.0615384615385
34.897334116511 42.4923076923077
34.9126995224506 42.4769230769231
34.9280649283901 42.6923076923077
34.9434303343296 42.8461538461538
34.9587957402691 42.9538461538462
34.9741611462086 43.0307692307692
34.9895265521482 42.9692307692308
35.0048919580877 42.6
